Wavelength(nm)	Intensity
772.673	62.78
772.721	-14.22
772.77	4.68
772.819	-0.22
772.867	108.38
772.916	111.28
772.965	121.98
773.013	167.38
773.062	141.68
773.111	168.38
773.159	165.78
773.208	135.68
773.256	171.08
773.305	175.88
773.354	201.68
773.402	239.68
773.451	323.78
773.499	438.68
773.548	572.08
773.596	679.38
773.645	766.28
773.693	885.08
773.742	972.18
773.79	1002.58
773.839	1096.68
773.887	1100.48
773.936	1128.58
773.984	1176.18
774.033	1193.38
774.081	1247.98
774.129	1235.78
774.178	1214.08
774.226	1223.38
774.275	1175.88
774.323	1238.48
774.371	1214.28
774.42	1170.88
774.468	1219.18
774.516	1231.38
774.565	1240.28
774.613	1244.28
774.661	1229.38
774.71	1224.88
774.758	1222.98
774.806	1211.08
774.854	1206.28
774.903	1202.48
774.951	1172.28
774.999	1200.78
775.047	1161.98
775.095	1173.68
775.144	1222.28
775.192	1253.18
775.24	1246.28
775.288	1262.38
775.336	1224.38
775.385	1269.98
775.433	1272.78
775.481	1269.48
775.529	1246.38
775.577	1277.58
775.625	1235.18
775.673	1228.88
775.721	1223.48
775.769	1254.18
775.817	1283.18
775.866	1273.38
775.914	1364.98
775.962	1329.48
776.01	1310.18
776.058	1334.98
776.106	1326.18
776.154	1342.28
776.202	1296.78
776.25	1323.98
776.298	1271.68
776.345	1281.88
776.393	1327.68
776.441	1319.68
776.489	1312.48
776.537	1311.48
776.585	1349.88
776.633	1344.88
776.681	1379.68
776.729	1406.68
776.777	1361.58
776.824	1379.08
776.872	1283.78
776.92	1289.28
776.968	1286.88
777.016	1242.48
777.064	1247.88
777.111	1288.98
777.159	1295.18
777.207	1252.48
777.255	1264.58
777.302	1269.38
777.35	1226.98
777.398	1243.18
777.446	1221.98
777.493	1181.08
777.541	1199.38
777.589	1180.98
777.636	1153.28
777.684	1180.58
777.732	1180.88
777.779	1183.28
777.827	1179.08
777.875	1204.88
777.922	1257.58
777.97	1237.08
778.018	1214.38
778.065	1251.18
778.113	1243.88
778.16	1283.48
778.208	1335.48
778.255	1278.68
778.303	1309.38
778.351	1365.68
778.398	1405.48
778.446	1363.18
778.493	1360.18
778.541	1392.28
778.588	1406.58
778.636	1451.78
778.683	1446.98
778.731	1474.18
778.778	1527.98
778.825	1578.58
778.873	1633.18
778.92	1620.48
778.968	1679.08
779.015	1705.98
779.062	1697.38
779.11	1732.48
779.157	1804.58
779.205	1801.88
779.252	1804.48
779.299	1870.38
779.347	1869.18
779.394	1959.98
779.441	2106.98
779.488	2084.48
779.536	2200.08
779.583	2185.18
779.63	2278.48
779.678	2298.48
779.725	2312.28
779.772	2407.38
779.819	2440.38
779.867	2477.08
779.914	2618.18
779.961	2716.18
780.008	2717.98
780.055	2926.48
780.102	2946.68
780.15	3066.48
780.197	3174.48
780.244	3149.98
780.291	3125.58
780.338	3105.48
780.385	3018.78
780.432	2939.78
780.479	2967.78
780.527	3068.08
780.574	3235.38
780.621	3371.38
780.668	3475.98
780.715	3621.18
780.762	3752.38
780.809	3921.58
780.856	4128.38
780.903	4184.98
780.95	4163.48
780.997	4242.48
781.044	4190.28
781.091	4249.88
781.138	4414.68
781.185	4375.48
781.232	4508.48
781.278	4599.58
781.325	4753.08
781.372	4744.88
781.419	4885.18
781.466	4969.38
781.513	4889.28
781.56	4902.18
781.607	5054.58
781.654	5019.08
781.7	5221.68
781.747	5341.88
781.794	5582.68
781.841	5804.18
781.888	6088.68
781.934	6198.08
781.981	6387.28
782.028	6399.28
782.075	6274.78
782.121	6174.88
782.168	5936.08
782.215	5587.68
782.262	5452.48
782.308	5317.48
782.355	5497.48
782.402	5714.88
782.448	6219.18
782.495	6853.78
782.542	7633.08
782.588	8263.88
782.635	8942.58
782.682	9163.48
782.728	9304.88
782.775	9164.68
782.821	8636.18
782.868	8026.68
782.915	7344.08
782.961	6735.58
783.008	6289.08
783.054	6122.68
783.101	6285.88
783.147	6799.38
783.194	7485.98
783.24	8428.08
783.287	9274.78
783.333	10054.48
783.38	10334.68
783.426	10472.98
783.473	10220.18
783.519	9622.48
783.566	8947.68
783.612	8065.98
783.658	7421.98
783.705	6823.68
783.751	6849.28
783.798	7307.68
783.844	7946.88
783.89	8923.98
783.937	9952.38
783.983	10844.68
784.029	11411.08
784.076	11812.78
784.122	11588.48
784.168	11037.48
784.215	10262.88
784.261	9288.88
784.307	8453.68
784.353	8107.48
784.4	7873.18
784.446	8105.68
784.492	8836.48
784.538	9844.18
784.585	11038.68
784.631	12146.58
784.677	12924.68
784.723	13274.38
784.769	13312.58
784.816	12808.48
784.862	11960.28
784.908	10923.78
784.954	10023.38
785	9214.68
785.046	8931.28
785.092	9019.68
785.138	9648.88
785.185	10627.28
785.231	11815.78
785.277	12961.18
785.323	13611.78
785.369	14267.88
785.415	14184.38
785.461	13651.48
785.507	12744.08
785.553	11658.98
785.599	10508.98
785.645	9631.48
785.691	9384.48
785.737	9398.78
785.783	9902.08
785.829	10941.98
785.875	12077.68
785.921	13266.98
785.967	14037.98
786.012	14568.78
786.058	14549.48
786.104	14009.88
786.15	13142.18
786.196	12014.58
786.242	10921.48
786.288	10018.88
786.334	9781.68
786.379	9827.28
786.425	10565.48
786.471	11587.28
786.517	12980.48
786.563	14077.28
786.608	15042.38
786.654	15603.68
786.7	15574.08
786.746	15158.98
786.791	14183.48
786.837	13076.78
786.883	11887.98
786.929	11079.48
786.974	10631.68
787.02	10802.28
787.066	11421.18
787.111	12539.88
787.157	13884.08
787.203	15207.28
787.248	16162.78
787.294	16846.98
787.34	16716.58
787.385	16319.58
787.431	15143.68
787.476	13984.58
787.522	12657.18
787.567	11730.68
787.613	11257.78
787.659	11324.98
787.704	12053.68
787.75	12939.28
787.795	14086.88
787.841	15459.68
787.886	16326.88
787.932	16808.78
787.977	16835.98
788.023	16248.68
788.068	15314.88
788.114	14010.48
788.159	12884.98
788.204	11848.18
788.25	11282.68
788.295	11399.28
788.341	12026.48
788.386	13060.18
788.432	14286.88
788.477	15652.18
788.522	16505.38
788.568	16847.68
788.613	17028.98
788.658	16228.48
788.704	15332.28
788.749	14168.68
788.794	13058.88
788.84	12171.68
788.885	11799.58
788.93	11984.58
788.975	12715.68
789.021	13956.38
789.066	15333.88
789.111	16495.08
789.156	17397.08
789.202	17994.18
789.247	17853.18
789.292	17064.08
789.337	16116.08
789.382	14967.28
789.427	13732.38
789.473	12961.38
789.518	12535.78
789.563	12641.38
789.608	13503.58
789.653	14571.98
789.698	15811.88
789.743	17062.98
789.788	18105.38
789.834	18382.58
789.879	18074.68
789.924	17448.18
789.969	16461.58
790.014	15147.48
790.059	13882.88
790.104	13103.58
790.149	12770.38
790.194	12884.78
790.239	13610.38
790.284	14664.48
790.329	15832.58
790.374	17026.98
790.419	17864.78
790.464	17934.58
790.508	17750.78
790.553	16905.48
790.598	15777.18
790.643	14714.18
790.688	13650.38
790.733	12913.18
790.778	12680.58
790.823	12956.08
790.868	13684.68
790.912	14823.08
790.957	16098.88
791.002	17268.18
791.047	17991.58
791.092	18143.08
791.136	17863.28
791.181	16981.48
791.226	15893.18
791.271	14654.78
791.316	13792.58
791.36	13147.68
791.405	13103.78
791.45	13552.08
791.494	14546.68
791.539	15810.18
791.584	16897.48
791.628	18023.48
791.673	18675.08
791.718	18777.88
791.762	18317.48
791.807	17434.78
791.852	16273.78
791.896	14997.08
791.941	14108.08
791.986	13507.78
792.03	13455.18
792.075	14070.98
792.119	14952.68
792.164	16390.48
792.208	17341.38
792.253	18323.18
792.298	18836.88
792.342	18780.78
792.387	18074.18
792.431	17229.58
792.476	16027.88
792.52	14910.48
792.565	14100.08
792.609	13613.88
792.653	13648.88
792.698	14346.78
792.742	15085.58
792.787	16283.98
792.831	17375.68
792.876	18217.98
792.92	18720.68
792.964	18412.38
793.009	17882.18
793.053	16870.68
793.097	15824.58
793.142	14724.18
793.186	13988.98
793.23	13810.68
793.275	13949.28
793.319	14607.38
793.363	15671.78
793.408	16805.58
793.452	17883.98
793.496	18618.48
793.54	18849.68
793.585	18527.88
793.629	18046.48
793.673	16972.58
793.717	15907.08
793.762	14721.18
793.806	14164.18
793.85	13978.38
793.894	14211.48
793.938	15155.98
793.982	16162.98
794.027	17449.78
794.071	18468.48
794.115	18951.98
794.159	19056.98
794.203	18788.68
794.247	17778.18
794.291	16709.48
794.335	15700.28
794.379	14686.38
794.423	14094.38
794.467	14063.68
794.511	14508.28
794.556	15419.08
794.6	16314.08
794.644	17411.28
794.688	18236.28
794.732	18864.98
794.775	18747.78
794.819	18319.58
794.863	17538.68
794.907	16400.88
794.951	15324.58
794.995	14590.58
795.039	14170.98
795.083	14260.68
795.127	14743.18
795.171	15833.98
795.215	16886.78
795.259	17785.28
795.302	18715.58
795.346	19285.88
795.39	19048.38
795.434	18589.38
795.478	17788.18
795.522	16613.68
795.565	15513.38
795.609	14732.68
795.653	14352.98
795.697	14672.18
795.74	15315.28
795.784	16237.18
795.828	17381.78
795.872	18454.18
795.915	19122.18
795.959	19554.18
796.003	19244.58
796.047	18893.88
796.09	17774.58
796.134	16669.08
796.178	15785.68
796.221	15050.98
796.265	14786.78
796.308	14888.88
796.352	15462.08
796.396	16352.98
796.439	17389.68
796.483	18450.98
796.526	19075.58
796.57	19301.28
796.614	18873.08
796.657	18293.58
796.701	17354.38
796.744	16304.28
796.788	15157.98
796.831	14604.98
796.875	14257.68
796.918	14527.68
796.962	15138.38
797.005	16120.98
797.049	17273.38
797.092	18089.78
797.136	18722.78
797.179	18827.48
797.222	18552.98
797.266	17972.08
797.309	16830.08
797.353	15980.08
797.396	15111.78
797.439	14294.08
797.483	14200.28
797.526	14647.28
797.569	15366.58
797.613	16388.28
797.656	17407.58
797.699	18477.68
797.743	18975.88
797.786	19196.88
797.829	19000.18
797.873	18337.18
797.916	17377.68
797.959	16352.38
798.002	15429.58
798.045	14899.58
798.089	14897.98
798.132	15120.48
798.175	15944.78
798.218	17026.58
798.262	18101.48
798.305	19072.18
798.348	19651.98
798.391	19910.08
798.434	19643.08
798.477	18828.98
798.52	17849.28
798.564	16770.28
798.607	15914.88
798.65	15118.78
798.693	14811.08
798.736	15236.78
798.779	16054.08
798.822	17012.28
798.865	17951.58
798.908	18810.68
798.951	19591.08
798.994	19722.98
799.037	19479.48
799.08	18749.18
799.123	17562.08
799.166	16322.58
799.209	15526.78
799.252	14770.68
799.295	14399.68
799.338	14812.78
799.381	15406.18
799.424	16371.38
799.467	17489.18
799.51	18266.98
799.552	19140.38
799.595	19309.18
799.638	19066.38
799.681	18327.98
799.724	17467.08
799.767	16332.58
799.81	15433.58
799.852	14814.38
799.895	14608.88
799.938	14651.68
799.981	15380.38
800.024	16333.88
800.066	17393.18
800.109	18346.68
800.152	18961.98
800.195	19302.78
800.237	19129.58
800.28	18709.98
800.323	17660.98
800.365	16784.28
800.408	15892.78
800.451	15238.38
800.493	14736.18
800.536	15104.68
800.579	15591.88
800.621	16457.08
800.664	17605.28
800.707	18516.28
800.749	19528.48
800.792	19784.98
800.834	19828.58
800.877	19288.58
800.92	18385.28
800.962	17378.48
801.005	16315.28
801.047	15426.88
801.09	14966.98
801.132	14854.08
801.175	15338.78
801.217	16197.88
801.26	17087.08
801.302	18374.08
801.345	19014.48
801.387	19523.88
801.43	19912.78
801.472	19319.58
801.514	18621.28
801.557	17438.28
801.599	16408.28
801.642	15571.68
801.684	14863.88
801.726	14786.58
801.769	15083.78
801.811	15926.38
801.854	16840.58
801.896	17843.18
801.938	18865.48
801.981	19621.88
802.023	19666.38
802.065	19559.78
802.107	18958.78
802.15	18051.98
802.192	16848.38
802.234	15903.58
802.276	15195.48
802.319	14783.48
802.361	15107.88
802.403	15819.38
802.445	16816.08
802.488	18055.48
802.53	19103.78
802.572	19869.38
802.614	20331.48
802.656	20234.68
802.698	19743.08
802.741	18867.98
802.783	17887.28
802.825	16680.38
802.867	15724.38
802.909	15214.78
802.951	15161.48
802.993	15641.98
803.035	16446.88
803.077	17681.68
803.119	18569.98
803.161	19617.38
803.204	20239.28
803.246	20343.18
803.288	19906.28
803.33	19261.68
803.372	18171.48
803.414	17040.58
803.456	15924.78
803.497	15141.08
803.539	14780.88
803.581	15167.78
803.623	15519.88
803.665	16625.88
803.707	17582.18
803.749	18548.68
803.791	19480.58
803.833	19791.68
803.875	19749.98
803.917	19088.28
803.958	18166.28
804	17001.58
804.042	15923.78
804.084	15041.28
804.126	14574.88
804.168	14538.98
804.209	14849.38
804.251	15711.48
804.293	17043.98
804.335	17992.98
804.376	19181.38
804.418	19549.48
804.46	19954.78
804.502	19416.78
804.543	18873.58
804.585	17702.88
804.627	16725.58
804.668	15711.78
804.71	14979.18
804.752	14721.38
804.793	14965.78
804.835	15711.88
804.877	16622.88
804.918	17995.28
804.96	19146.38
805.002	19958.78
805.043	20560.58
805.085	20413.68
805.126	19888.98
805.168	19222.98
805.209	17982.38
805.251	16870.58
805.293	15964.28
805.334	15188.28
805.376	15033.08
805.417	15507.78
805.459	16326.38
805.5	17513.08
805.542	18806.98
805.583	19800.28
805.624	20567.38
805.666	20790.98
805.707	20665.18
805.749	19946.38
805.79	18808.08
805.832	17556.98
805.873	16527.28
805.914	15534.98
805.956	15109.58
805.997	15035.48
806.039	15452.98
806.08	16226.08
806.121	17483.78
806.163	18657.08
806.204	19543.28
806.245	20164.08
806.286	20315.48
806.328	20014.28
806.369	19143.68
806.41	18183.48
806.452	17056.88
806.493	15755.58
806.534	14896.98
806.575	14485.28
806.616	14523.48
806.658	15222.08
806.699	16165.18
806.74	17333.98
806.781	18353.58
806.822	19415.98
806.864	20003.08
806.905	19941.78
806.946	19518.18
806.987	18682.98
807.028	17559.58
807.069	16381.28
807.11	15410.28
807.151	14582.48
807.193	14290.88
807.234	14629.28
807.275	15170.18
807.316	16313.18
807.357	17210.48
807.398	18491.68
807.439	19501.88
807.48	19853.68
807.521	19944.28
807.562	19422.88
807.603	18551.58
807.644	17415.88
807.685	16197.48
807.726	14922.18
807.767	14412.88
807.808	14173.18
807.848	14394.08
807.889	15139.18
807.93	16175.08
807.971	17259.88
808.012	18355.08
808.053	19352.58
808.094	19714.48
808.135	19612.08
808.176	19000.88
808.216	18087.48
808.257	16934.28
808.298	15775.18
808.339	14697.98
808.38	13971.28
808.42	13717.88
808.461	13960.98
808.502	14664.08
808.543	15660.38
808.583	16682.68
808.624	17874.48
808.665	18748.08
808.706	19028.08
808.746	19059.28
808.787	18520.28
808.828	17538.18
808.868	16504.58
808.909	15166.48
808.95	14339.38
808.99	13646.18
809.031	13286.78
809.072	13624.48
809.112	14372.58
809.153	15215.88
809.193	16320.48
809.234	17588.38
809.275	18426.28
809.315	18882.48
809.356	18842.28
809.396	18295.98
809.437	17339.08
809.477	16418.38
809.518	15317.48
809.558	14271.28
809.599	13579.98
809.639	13251.28
809.68	13551.38
809.72	13995.18
809.761	14971.58
809.801	15900.48
809.842	16932.38
809.882	17859.28
809.922	18240.88
809.963	18431.58
810.003	18078.28
810.044	17316.98
810.084	16216.88
810.124	15323.68
810.165	14261.58
810.205	13586.28
810.245	13060.98
810.286	12964.48
810.326	13335.08
810.366	14054.18
810.407	14996.48
810.447	15905.58
810.487	16714.38
810.527	17579.18
810.568	17784.78
810.608	17682.88
810.648	17087.28
810.688	16279.38
810.729	15377.08
810.769	14233.58
810.809	13217.08
810.849	12545.58
810.889	12084.88
810.93	12211.28
810.97	12606.18
811.01	13214.68
811.05	13927.08
811.09	14790.08
811.13	15562.18
811.17	15978.48
811.211	16016.28
811.251	16079.28
811.291	15552.78
811.331	14922.78
811.371	14341.08
811.411	13570.98
811.451	12890.28
811.491	12555.98
811.531	12228.48
811.571	12254.18
811.611	12525.48
811.651	12912.28
811.691	13433.68
811.731	13676.58
811.771	13956.58
811.811	14139.08
811.851	14183.08
811.891	14086.48
811.931	13735.58
811.971	13341.58
812.01	13240.28
812.05	12832.18
812.09	12730.48
812.13	12732.68
812.17	12989.98
812.21	13203.98
812.25	13321.98
812.289	13525.28
812.329	13815.78
812.369	13690.98
812.409	13611.38
812.449	13369.28
812.488	13194.48
812.528	12898.68
812.568	12592.78
812.608	12527.78
812.647	12326.58
812.687	12308.18
812.727	12451.58
812.767	12737.48
812.806	13018.58
812.846	13216.28
812.886	13553.48
812.925	13669.18
812.965	13657.28
813.005	13474.78
813.044	13100.98
813.084	12699.68
813.124	12137.18
813.163	11674.08
813.203	11264.28
813.242	11018.78
813.282	11046.18
813.322	10889.38
813.361	11153.48
813.401	11545.18
813.44	11933.48
813.48	12336.28
813.519	12679.28
813.559	12713.48
813.598	12623.18
813.638	12525.38
813.677	12244.78
813.717	11767.68
813.756	11128.58
813.796	10766.98
813.835	10153.98
813.875	9959.58
813.914	9781.18
813.953	9895.08
813.993	10018.18
814.032	10123.48
814.072	10439.68
814.111	10719.68
814.15	11078.08
814.19	11189.88
814.229	11230.68
814.268	11033.88
814.308	10833.48
814.347	10383.68
814.386	10151.88
814.426	9810.18
814.465	9598.48
814.504	9126.38
814.543	9090.98
814.583	9200.68
814.622	9254.88
814.661	9380.68
814.7	9523.78
814.74	9683.38
814.779	9899.08
814.818	10009.08
814.857	10010.28
814.896	9823.68
814.936	9776.68
814.975	9640.08
815.014	9268.88
815.053	8973.48
815.092	8932.38
815.131	8690.48
815.17	8596.98
815.209	8542.58
815.249	8637.78
815.288	8684.78
815.327	8795.08
815.366	8870.98
815.405	8909.48
815.444	8860.68
815.483	8997.68
815.522	8878.88
815.561	8755.28
815.6	8644.18
815.639	8405.48
815.678	8265.98
815.717	8164.98
815.756	8068.38
815.795	8008.88
815.834	7947.38
815.873	7853.58
815.912	7837.28
815.95	7871.78
815.989	7849.68
816.028	7729.28
816.067	7726.98
816.106	7605.78
816.145	7646.88
816.184	7495.18
816.223	7400.58
816.261	7324.88
816.3	7139.38
816.339	7049.08
816.378	7005.38
816.417	6939.88
816.455	6900.18
816.494	6899.88
816.533	6825.78
816.572	6711.88
816.61	6670.88
816.649	6544.28
816.688	6509.08
816.727	6507.78
816.765	6445.38
816.804	6310.28
816.843	6310.28
816.881	6233.68
816.92	6210.28
816.959	6215.48
816.997	6137.58
817.036	6149.28
817.075	6107.18
817.113	6048.78
817.152	5981.08
817.19	5904.18
817.229	5930.78
817.267	5838.18
817.306	5818.38
817.345	5852.88
817.383	5711.68
817.422	5740.08
817.46	5629.98
817.499	5714.38
817.537	5674.18
817.576	5608.98
817.614	5610.18
817.653	5507.58
817.691	5499.68
817.73	5392.68
817.768	5426.68
817.806	5340.78
817.845	5307.38
817.883	5289.98
817.922	5176.28
817.96	5233.58
817.998	5195.58
818.037	5172.48
818.075	5127.28
818.114	5074.28
818.152	5003.28
818.19	4995.38
818.229	4849.28
818.267	4848.88
818.305	4716.48
818.343	4645.98
818.382	4494.88
818.42	4434.88
818.458	4450.78
818.497	4535.08
818.535	4517.38
818.573	4486.88
818.611	4540.68
818.649	4509.48
818.688	4485.98
818.726	4385.28
818.764	4270.88
818.802	4176.78
818.84	4051.88
818.879	3852.08
818.917	3851.58
818.955	3864.38
818.993	3556.28
819.031	3526.98
819.069	3506.28
819.107	3551.08
819.145	3608.88
819.183	3644.28
819.222	3703.18
819.26	3722.18
819.298	3793.48
819.336	3697.58
819.374	3763.48
819.412	3646.68
819.45	3534.78
819.488	3412.68
819.526	3200.48
819.564	3093.28
819.602	2956.98
819.64	2896.68
819.678	2835.38
819.715	2809.58
819.753	2857.48
819.791	2933.08
819.829	2920.68
819.867	3111.68
819.905	3244.88
819.943	3244.88
819.981	3286.68
820.019	3272.08
820.056	3146.88
820.094	3095.98
820.132	2990.98
820.17	2830.58
820.208	2638.18
820.246	2548.78
820.283	2452.98
820.321	2470.18
820.359	2392.28
820.397	2471.98
820.434	2478.88
820.472	2581.18
820.51	2567.28
820.548	2673.78
820.585	2671.08
820.623	2765.68
820.661	2707.98
820.698	2661.38
820.736	2489.08
820.774	2454.78
820.811	2331.38
820.849	2207.28
820.887	2196.68
820.924	2038.88
820.962	2002.68
820.999	1935.48
821.037	1966.98
821.075	1993.28
821.112	2066.08
821.15	2041.88
821.187	2124.98
821.225	2180.78
821.262	2114.78
821.3	2120.08
821.337	2065.78
821.375	2021.98
821.412	1923.68
821.45	1873.48
821.487	1786.38
821.525	1711.68
821.562	1662.88
821.6	1610.28
821.637	1579.08
821.675	1628.88
821.712	1584.58
821.749	1594.28
821.787	1577.48
821.824	1608.18
821.862	1653.68
821.899	1622.88
821.936	1622.68
821.974	1637.28
822.011	1607.38
822.048	1574.28
822.086	1491.88
822.123	1454.48
822.16	1477.28
822.197	1392.48
822.235	1381.98
822.272	1400.48
822.309	1400.98
822.346	1345.98
822.384	1397.68
822.421	1361.28
822.458	1470.78
822.495	1396.68
822.533	1388.88
822.57	1360.08
822.607	1351.88
822.644	1337.98
822.681	1286.28
822.718	1295.48
822.756	1316.68
822.793	1305.28
822.83	1254.98
822.867	1258.08
822.904	1268.88
822.941	1217.88
822.978	1211.08
823.015	1228.48
823.052	1207.88
823.089	1244.88
823.126	1230.08
823.163	1231.78
823.2	1238.48
823.237	1211.98
823.274	1142.98
823.311	1197.08
823.348	1132.18
823.385	1146.78
823.422	1108.58
823.459	1133.08
823.496	1117.18
823.533	1083.78
823.57	1041.98
823.607	1124.08
823.644	1091.78
823.681	1100.48
823.718	1082.78
823.754	1064.38
823.791	1086.68
823.828	1038.88
823.865	1040.78
823.902	1034.58
823.939	1006.38
823.975	1008.98
824.012	1026.08
824.049	1019.18
824.086	1041.58
824.123	1011.18
824.159	1044.28
824.196	999.98
824.233	1016.68
824.27	1025.68
824.306	960.58
824.343	1006.28
824.38	991.08
824.416	979.98
824.453	1000.58
824.49	1008.98
824.526	979.68
824.563	955.68
824.6	958.48
824.636	981.28
824.673	989.58
824.709	984.68
824.746	988.78
824.783	998.08
824.819	957.28
824.856	1003.78
824.892	996.28
824.929	969.88
824.965	956.88
825.002	984.78
825.039	1016.88
825.075	954.38
825.112	996.78
825.148	1004.28
825.184	1006.88
825.221	1006.78
825.257	1001.78
825.294	964.38
825.33	1029.28
825.367	1003.38
825.403	974.88
825.44	985.98
825.476	985.28
825.512	949.48
825.549	998.78
825.585	1018.18
825.621	976.18
825.658	1061.28
825.694	1002.38
825.73	1028.58
825.767	1035.98
825.803	1045.28
825.839	1063.88
825.876	1040.38
825.912	1060.38
825.948	1023.18
825.985	1053.88
826.021	1030.18
826.057	1006.08
826.093	1040.68
826.129	1013.98
826.166	1045.18
826.202	1023.68
826.238	1009.58
826.274	1018.28
826.31	1020.58
826.347	984.48
826.383	1043.38
826.419	1014.48
826.455	988.58
826.491	1028.98
826.527	1008.28
826.563	1047.78
826.599	1015.88
826.636	1014.78
826.672	992.28
826.708	986.48
826.744	1023.48
826.78	982.68
826.816	1042.48
826.852	1033.08
826.888	1011.58
826.924	1033.08
826.96	1073.48
826.996	1041.08
827.032	1050.88
827.068	1053.08
827.104	1036.78
827.14	1051.08
827.176	1047.38
827.212	1035.48
827.247	993.58
827.283	1026.08
827.319	1071.68
827.355	1037.08
827.391	1043.38
827.427	1067.28
827.463	1056.68
827.499	1089.88
827.534	1088.78
827.57	1115.08
827.606	1116.18
827.642	1112.78
827.678	1084.88
827.713	1130.68
827.749	1102.38
827.785	1119.18
827.821	1114.88
827.856	1110.38
827.892	1126.38
827.928	1109.18
827.964	1106.58
827.999	1108.78
828.035	1102.08
828.071	1117.08
828.106	1136.98
828.142	1146.38
828.178	1139.88
828.213	1099.18
828.249	1155.28
828.285	1128.88
828.32	1071.98
828.356	1104.18
828.391	1068.88
828.427	1039.98
828.463	1034.98
828.498	1068.18
828.534	1030.38
828.569	1069.68
828.605	1078.88
828.64	1094.38
828.676	1147.18
828.711	1096.98
828.747	1125.88
828.782	1141.18
828.818	1173.68
828.853	1114.68
828.889	1096.78
828.924	1090.28
828.96	1040.78
828.995	1056.48
829.031	985.48
829.066	994.68
829.101	1009.58
829.137	979.88
829.172	1016.38
829.208	1007.98
829.243	991.68
829.278	1091.68
829.314	1102.78
829.349	1096.28
829.384	1101.48
829.42	1126.58
829.455	1088.58
829.49	1053.18
829.525	1035.78
829.561	1038.38
829.596	1107.78
829.631	1007.08
829.666	1009.48
829.702	945.28
829.737	995.98
829.772	994.48
829.807	1032.88
829.842	1035.88
829.878	1072.58
829.913	1116.18
829.948	1089.78
829.983	1116.08
830.018	1135.08
830.053	1084.78
830.089	1055.28
830.124	1013.98
830.159	993.78
830.194	964.58
830.229	922.48
830.264	929.58
830.299	950.78
830.334	1007.78
830.369	978.08
830.404	997.88
830.439	1009.98
830.474	1061.68
830.509	1087.98
830.544	1132.48
830.579	1087.98
830.614	1067.68
830.649	1034.08
830.684	966.88
830.719	980.78
830.754	931.38
830.789	931.48
830.824	871.68
830.859	900.48
830.894	873.28
830.928	903.38
830.963	929.68
830.998	923.38
831.033	1012.18
831.068	995.38
831.103	976.88
831.138	1007.58
831.172	995.08
831.207	986.08
831.242	960.68
831.277	943.58
831.312	931.88
831.346	848.38
831.381	863.08
831.416	830.98
831.451	821.58
831.485	830.78
831.52	836.98
831.555	849.88
831.589	871.68
831.624	946.88
831.659	851.88
831.693	945.98
831.728	942.68
831.763	886.98
831.797	877.68
831.832	894.78
831.867	852.58
831.901	822.28
831.936	773.98
831.97	785.18
832.005	753.28
832.04	774.08
832.074	735.88
832.109	811.58
832.143	798.68
832.178	790.78
832.212	854.58
832.247	843.68
832.281	801.68
832.316	848.58
832.35	816.18
832.385	830.48
832.419	804.98
832.454	769.38
832.488	750.08
832.522	749.28
832.557	752.38
832.591	721.38
832.626	750.68
832.66	749.68
832.694	770.78
832.729	773.98
832.763	760.68
832.797	807.98
832.832	785.98
832.866	768.38
832.9	781.48
832.935	768.58
832.969	741.98
833.003	713.98
833.038	675.58
833.072	700.48
833.106	729.38
833.14	703.28
833.175	723.08
833.209	699.58
833.243	708.48
833.277	699.88
833.311	697.28
833.346	714.98
833.38	727.18
833.414	746.08
833.448	737.98
833.482	667.18
833.516	694.38
833.551	681.68
833.585	672.78
833.619	670.68
833.653	653.98
833.687	661.68
833.721	683.98
833.755	672.88
833.789	692.28
833.823	669.28
833.857	673.78
833.891	660.58
833.925	666.18
833.959	659.58
833.993	673.88
834.027	689.28
834.061	648.58
834.095	656.28
834.129	678.58
834.163	655.78
834.197	692.48
834.231	619.08
834.265	697.98
834.299	634.78
834.333	650.98
834.367	638.68
834.401	664.68
834.434	642.48
834.468	655.18
834.502	635.18
834.536	628.58
834.57	647.38
834.604	672.98
834.638	676.88
834.671	622.08
834.705	630.38
834.739	630.78
834.773	627.28
834.806	626.68
834.84	664.78
834.874	610.08
834.908	630.68
834.941	583.68
834.975	663.18
835.009	624.38
835.042	605.78
835.076	650.28
835.11	584.18
835.144	623.18
835.177	590.88
835.211	615.08
835.244	616.18
835.278	597.28
835.312	633.28
835.345	606.58
835.379	601.78
835.412	619.68
835.446	618.28
835.48	606.98
835.513	600.28
835.547	619.48
835.58	636.48
835.614	594.78
835.647	588.08
835.681	605.78
835.714	603.78
835.748	579.38
835.781	612.38
835.815	611.18
835.848	601.08
835.882	613.68
835.915	630.58
835.948	604.48
835.982	623.08
836.015	642.58
836.049	586.38
836.082	628.18
836.115	628.58
836.149	593.68
836.182	631.18
836.216	598.28
836.249	594.18
836.282	598.38
836.316	632.38
836.349	622.38
836.382	604.38
836.415	619.58
836.449	607.68
836.482	591.78
836.515	601.28
836.548	617.28
836.582	627.48
836.615	599.98
836.648	603.38
836.681	624.58
836.715	600.28
836.748	559.88
836.781	599.78
836.814	623.88
836.847	638.18
836.88	596.38
836.914	644.18
836.947	618.68
836.98	611.58
837.013	615.88
837.046	606.68
837.079	641.68
837.112	629.58
837.145	636.68
837.178	617.48
837.211	612.68
837.244	620.38
837.277	621.38
837.31	627.98
837.343	623.58
837.376	596.88
837.409	657.18
837.442	611.58
837.475	628.78
837.508	612.78
837.541	602.08
837.574	615.48
837.607	630.28
837.64	627.68
837.673	622.68
837.706	618.98
837.739	660.68
837.772	633.98
837.805	635.08
837.837	622.18
837.87	639.78
837.903	656.18
837.936	648.78
837.969	643.48
838.002	637.48
838.034	617.98
838.067	617.18
838.1	630.68
838.133	616.78
838.165	608.08
838.198	605.48
838.231	640.58
838.264	673.98
838.296	653.58
838.329	648.98
838.362	644.88
838.394	663.28
838.427	675.38
838.46	671.38
838.492	696.08
838.525	642.28
838.558	646.88
838.59	649.48
838.623	596.98
838.656	647.28
838.688	648.48
838.721	613.28
838.753	607.78
838.786	663.08
838.819	645.98
838.851	692.58
838.884	685.38
838.916	668.38
838.949	661.68
838.981	725.28
839.014	713.08
839.046	661.28
839.079	681.58
839.111	658.68
839.144	670.08
839.176	632.18
839.209	646.48
839.241	651.28
839.273	600.98
839.306	627.48
839.338	620.78
839.371	629.38
839.403	669.98
839.435	664.48
839.468	669.58
839.5	669.98
839.532	673.18
839.565	674.78
839.597	681.38
839.629	674.68
839.662	685.68
839.694	642.48
839.726	680.38
839.759	604.18
839.791	637.78
839.823	639.18
839.855	603.38
839.888	624.78
839.92	626.08
839.952	612.78
839.984	590.78
840.016	623.18
840.049	648.48
840.081	696.28
840.113	685.48
840.145	684.78
840.177	705.18
840.209	693.98
840.242	658.38
840.274	625.88
840.306	648.28
840.338	638.58
840.37	657.98
840.402	602.88
840.434	605.58
840.466	619.38
840.498	602.18
840.53	602.48
840.562	613.58
840.594	649.78
840.626	610.88
840.658	632.98
840.69	637.78
840.722	622.78
840.754	648.98
840.786	658.08
840.818	674.78
840.85	673.08
840.882	627.38
840.914	641.58
840.946	635.98
840.978	617.78
841.01	622.68
841.041	571.98
841.073	580.38
841.105	588.38
841.137	605.18
841.169	612.78
841.201	620.18
841.233	605.18
841.264	643.98
841.296	648.98
841.328	677.58
841.36	673.48
841.391	646.38
841.423	640.98
841.455	631.98
841.487	628.58
841.518	611.38
841.55	638.78
841.582	621.78
841.614	590.28
841.645	579.08
841.677	595.68
841.709	596.38
841.74	598.08
841.772	608.78
841.804	583.68
841.835	624.18
841.867	612.38
841.898	601.88
841.93	622.08
841.962	622.18
841.993	618.08
842.025	598.68
842.056	615.28
842.088	594.48
842.119	627.98
842.151	627.88
842.183	555.38
842.214	589.08
842.246	604.28
842.277	600.68
842.309	595.78
842.34	552.18
842.371	586.98
842.403	554.78
842.434	585.38
842.466	562.88
842.497	586.28
842.529	615.58
842.56	614.38
842.591	588.98
842.623	552.68
842.654	596.78
842.686	558.78
842.717	597.98
842.748	581.28
842.78	562.88
842.811	587.48
842.842	569.38
842.873	547.48
842.905	556.78
842.936	557.38
842.967	513.68
842.999	529.78
843.03	533.68
843.061	550.28
843.092	557.58
843.124	554.48
843.155	554.58
843.186	558.38
843.217	557.28
843.248	518.08
843.28	548.18
843.311	561.38
843.342	541.88
843.373	532.78
843.404	533.98
843.435	555.88
843.466	536.98
843.497	544.38
843.529	542.68
843.56	548.78
843.591	525.28
843.622	496.18
843.653	537.38
843.684	575.58
843.715	547.68
843.746	547.68
843.777	496.48
843.808	556.18
843.839	545.48
843.87	568.38
843.901	547.68
843.932	557.18
843.963	511.98
843.994	573.68
844.025	535.48
844.056	499.98
844.087	534.78
844.118	545.28
844.148	539.98
844.179	500.78
844.21	521.78
844.241	565.48
844.272	520.28
844.303	531.88
844.334	523.88
844.364	537.58
844.395	508.68
844.426	527.48
844.457	533.78
844.488	538.48
844.518	533.38
844.549	524.98
844.58	545.48
844.611	520.28
844.641	510.28
844.672	531.78
844.703	543.18
844.734	510.98
844.764	532.58
844.795	498.58
844.826	551.08
844.856	511.38
844.887	510.58
844.918	546.78
844.948	506.58
844.979	529.58
845.01	532.98
845.04	471.18
845.071	511.68
845.101	546.58
845.132	514.28
845.162	519.88
845.193	500.88
845.224	520.48
845.254	512.78
845.285	509.08
845.315	527.78
845.346	498.28
845.376	517.28
845.407	555.98
845.437	511.98
845.468	500.68
845.498	532.88
845.529	528.18
845.559	521.08
845.589	495.28
845.62	485.28
845.65	519.08
845.681	484.38
845.711	515.48
845.741	526.38
845.772	494.68
845.802	530.68
845.832	522.18
845.863	506.48
845.893	495.98
845.923	525.68
845.954	505.78
845.984	490.68
846.014	521.28
846.045	515.48
846.075	495.98
846.105	530.48
846.135	532.68
846.166	470.78
846.196	538.38
846.226	559.98
846.256	501.98
846.287	543.38
846.317	515.28
846.347	514.98
846.377	503.78
846.407	506.38
846.437	522.88
846.468	506.78
846.498	504.38
846.528	528.88
846.558	541.78
846.588	494.58
846.618	508.48
846.648	518.78
846.678	490.28
846.708	548.18
846.738	530.08
846.768	515.98
846.799	525.88
846.829	527.68
846.859	505.88
846.889	524.88
846.919	520.48
846.949	517.48
846.979	509.58
847.008	520.98
847.038	510.28
847.068	511.38
847.098	513.78
847.128	525.98
847.158	521.88
847.188	501.48
847.218	517.58
847.248	565.98
847.278	513.58
847.308	519.18
847.337	540.18
847.367	519.18
847.397	541.98
847.427	515.78
847.457	484.78
847.487	502.98
847.516	519.28
847.546	524.08
847.576	513.38
847.606	533.48
847.635	513.08
847.665	535.98
847.695	521.28
847.725	500.18
847.754	513.48
847.784	518.48
847.814	521.88
847.843	545.48
847.873	555.28
847.903	509.38
847.932	519.98
847.962	543.98
847.992	539.48
848.021	521.48
848.051	521.08
848.081	528.08
848.11	511.88
848.14	511.18
848.169	530.48
848.199	484.08
848.229	551.18
848.258	517.98
848.288	526.58
848.317	548.68
848.347	523.38
848.376	522.68
848.406	539.58
848.435	535.38
848.465	547.98
848.494	534.28
848.524	542.58
848.553	518.58
848.582	548.88
848.612	528.18
848.641	523.38
848.671	533.68
848.7	540.88
848.729	552.48
848.759	560.78
848.788	514.28
848.818	570.98
848.847	554.08
848.876	497.98
848.906	512.98
848.935	528.98
848.964	524.98
848.994	485.08
849.023	526.58
849.052	518.58
849.081	507.18
849.111	525.28
849.14	526.78
849.169	513.88
849.198	514.88
849.228	522.98
849.257	516.18
849.286	538.08
849.315	511.28
849.344	557.88
849.374	515.08
849.403	520.48
849.432	483.48
849.461	494.78
849.49	528.58
849.519	512.98
849.548	524.28
849.577	521.78
849.607	531.58
849.636	511.48
849.665	495.08
849.694	522.78
849.723	522.48
849.752	543.08
849.781	552.18
849.81	487.18
849.839	517.58
849.868	514.18
849.897	560.68
849.926	472.78
849.955	500.28
849.984	510.98
850.013	490.28
850.042	467.38
850.071	474.58
850.1	486.78
850.129	476.48
850.157	503.68
850.186	490.28
850.215	480.18
850.244	485.68
850.273	461.78
850.302	477.38
850.331	486.48
850.359	459.38
850.388	447.98
850.417	433.88
850.446	436.88
850.475	407.08
850.504	427.28
850.532	423.78
850.561	410.88
850.59	380.38
850.619	365.48
850.647	405.88
850.676	379.98
850.705	373.38
850.733	362.28
850.762	372.18
850.791	355.28
850.819	348.28
850.848	305.88
850.877	349.08
850.905	319.68
850.934	291.58
850.963	305.28
850.991	304.68
851.02	276.28
851.049	292.98
851.077	277.78
851.106	284.68
851.134	275.98
851.163	281.48
851.191	245.98
851.22	253.98
851.248	255.78
851.277	224.78
851.305	239.48
851.334	230.68
851.362	199.28
851.391	211.78
851.419	221.38
851.448	210.08
851.476	208.08
851.505	218.78
851.533	190.78
851.562	214.18
851.59	191.68
851.618	190.08
851.647	190.08
851.675	183.18
851.704	182.78
851.732	164.28
851.76	162.58
851.789	175.48
851.817	177.48
851.845	162.58
851.874	169.78
851.902	166.28
851.93	170.78
851.958	151.28
851.987	149.08
852.015	127.68
852.043	113.68
852.071	-4.52
852.1	0.88
852.128	0.78
852.156	-1.62
